 W Density=19.3, Angle=90.deg
 Photon Energy (eV), Atten Length (microns)
   30.0000  1.606545E-02
   35.0000  2.069411E-02
   40.0000  9.790066E-03
   45.0000  9.791564E-03
   50.0000  7.354966E-03
   55.0000  7.418434E-03
   60.0000  9.498976E-03
   65.0000  1.194934E-02
   70.0000  1.521584E-02
   75.0000  1.941743E-02
   80.0000  2.465279E-02
   85.0000  2.919851E-02
   90.0000  3.194625E-02
   95.0000  3.251271E-02
   100.000  3.218835E-02
   105.000  3.169142E-02
   110.000  3.119981E-02
   115.000  3.054009E-02
   120.000  2.990525E-02
   125.000  2.930850E-02
   130.000  2.876708E-02
   135.000  2.835678E-02
   140.000  2.797068E-02
   145.000  2.760327E-02
   150.000  2.725291E-02
   155.000  2.699744E-02
   160.000  2.679554E-02
   165.000  2.664474E-02
   170.000  2.658089E-02
   175.000  2.654971E-02
   180.000  2.663179E-02
   185.000  2.671672E-02
   190.000  2.675092E-02
   195.000  2.676727E-02
   200.000  2.678343E-02
   205.000  2.680543E-02
   210.000  2.686257E-02
   215.000  2.692215E-02
   220.000  2.698051E-02
   225.000  2.703764E-02
   230.000  2.709376E-02
   235.000  2.714859E-02
   240.000  2.720257E-02
   245.000  2.725539E-02
   250.000  2.730728E-02
   255.000  2.735827E-02
   260.000  2.740826E-02
   265.000  2.745755E-02
   270.000  2.761429E-02
   275.000  2.797049E-02
   280.000  2.833192E-02
   285.000  2.869147E-02
   290.000  2.904916E-02
   295.000  2.940521E-02
   300.000  2.975935E-02
   305.000  3.012709E-02
   310.000  3.051786E-02
   315.000  3.090740E-02
   320.000  3.129560E-02
   325.000  3.168263E-02
   330.000  3.206824E-02
   335.000  3.245280E-02
   340.000  3.284405E-02
   345.000  3.324100E-02
   350.000  3.363862E-02
   355.000  3.403530E-02
   360.000  3.443104E-02
   365.000  3.482439E-02
   370.000  3.520699E-02
   375.000  3.551036E-02
   380.000  3.581224E-02
   385.000  3.611270E-02
   390.000  3.641174E-02
   395.000  3.670942E-02
   400.000  3.700566E-02
   405.000  3.730059E-02
   410.000  3.759430E-02
   415.000  3.788145E-02
   420.000  3.815308E-02
   425.000  3.842114E-02
   430.000  3.868783E-02
   435.000  3.895328E-02
   440.000  3.921735E-02
   445.000  3.948019E-02
   450.000  3.978323E-02
   455.000  4.015796E-02
   460.000  4.060969E-02
   465.000  4.108752E-02
   470.000  4.158959E-02
   475.000  4.209310E-02
   480.000  4.259750E-02
   485.000  4.310276E-02
   490.000  4.360849E-02
   495.000  4.411455E-02
   500.000  4.462056E-02
   505.000  4.512798E-02
   510.000  4.563701E-02
   515.000  4.615347E-02
   520.000  4.668172E-02
   525.000  4.722505E-02
   530.000  4.780703E-02
   535.000  4.840382E-02
   540.000  4.902530E-02
   545.000  4.964828E-02
   550.000  5.027203E-02
   555.000  5.090681E-02
   560.000  5.155048E-02
   565.000  5.218791E-02
   570.000  5.282519E-02
   575.000  5.333658E-02
   580.000  5.384037E-02
   585.000  5.431393E-02
   590.000  5.478185E-02
   595.000  5.523299E-02
   600.000  5.568403E-02
   605.000  5.613497E-02
   610.000  5.658590E-02
   615.000  5.703687E-02
   620.000  5.749121E-02
   625.000  5.794973E-02
   630.000  5.845116E-02
   635.000  5.900564E-02
   640.000  5.962053E-02
   645.000  6.031998E-02
   650.000  6.105603E-02
   655.000  6.185715E-02
   660.000  6.266260E-02
   665.000  6.347244E-02
   670.000  6.428054E-02
   675.000  6.505121E-02
   680.000  6.582534E-02
   685.000  6.656717E-02
   690.000  6.731048E-02
   695.000  6.805271E-02
   700.000  6.879646E-02
   705.000  6.957198E-02
   710.000  7.037693E-02
   715.000  7.119530E-02
   720.000  7.204649E-02
   725.000  7.290187E-02
   730.000  7.376129E-02
   735.000  7.462486E-02
   740.000  7.549278E-02
   745.000  7.636496E-02
   750.000  7.724150E-02
   755.000  7.812293E-02
   760.000  7.900851E-02
   765.000  7.990436E-02
   770.000  8.080601E-02
   775.000  8.172086E-02
   780.000  8.265823E-02
   785.000  8.360022E-02
   790.000  8.456577E-02
   795.000  8.554018E-02
   800.000  8.651967E-02
   805.000  8.750439E-02
   810.000  8.849415E-02
   815.000  8.948910E-02
   820.000  9.048911E-02
   825.000  9.149415E-02
   830.000  9.250431E-02
   835.000  9.351947E-02
   840.000  9.454250E-02
   845.000  9.557468E-02
   850.000  9.661200E-02
   855.000  9.765972E-02
   860.000  9.871493E-02
   865.000  9.977534E-02
   870.000  0.100847
   875.000  0.101925
   880.000  0.103008
   885.000  0.104096
   890.000  0.105190
   895.000  0.106289
   900.000  0.107393
   905.000  0.108504
   910.000  0.109619
   915.000  0.110740
   920.000  0.111866
   925.000  0.113007
   930.000  0.114163
   935.000  0.115324
   940.000  0.116494
   945.000  0.117671
   950.000  0.118855
   955.000  0.120046
   960.000  0.121246
   965.000  0.122451
   970.000  0.123663
   975.000  0.124880
   980.000  0.126103
   985.000  0.127332
   990.000  0.128569
   995.000  0.129813
   1000.00  0.131062
   1005.00  0.132321
   1010.00  0.133586
   1015.00  0.134856
   1020.00  0.136163
   1025.00  0.137483
   1030.00  0.138808
   1035.00  0.140146
   1040.00  0.141495
   1045.00  0.142850
   1050.00  0.144214
   1055.00  0.145592
   1060.00  0.146978
   1065.00  0.148370
   1070.00  0.149769
   1075.00  0.151176
   1080.00  0.152588
   1085.00  0.154008
   1090.00  0.155435
   1095.00  0.156868
   1100.00  0.158307
   1105.00  0.159754
   1110.00  0.161208
   1115.00  0.162668
   1120.00  0.164135
   1125.00  0.165610
   1130.00  0.167091
   1135.00  0.168579
   1140.00  0.170073
   1145.00  0.171575
   1150.00  0.173083
   1155.00  0.174598
   1160.00  0.176119
   1165.00  0.177646
   1170.00  0.179181
   1175.00  0.180722
   1180.00  0.182271
   1185.00  0.183826
   1190.00  0.185388
   1195.00  0.186957
   1200.00  0.188532
   1205.00  0.190114
   1210.00  0.191702
   1215.00  0.193298
   1220.00  0.194900
   1225.00  0.196510
   1230.00  0.198126
   1235.00  0.199766
   1240.00  0.201421
   1245.00  0.203083
   1250.00  0.204752
   1255.00  0.206448
   1260.00  0.208160
   1265.00  0.209879
   1270.00  0.211605
   1275.00  0.213363
   1280.00  0.215141
   1285.00  0.216927
   1290.00  0.218721
   1295.00  0.220521
   1300.00  0.222330
   1305.00  0.224146
   1310.00  0.225969
   1315.00  0.227801
   1320.00  0.229641
   1325.00  0.231489
   1330.00  0.233345
   1335.00  0.235209
   1340.00  0.237083
   1345.00  0.238965
   1350.00  0.240855
   1355.00  0.242753
   1360.00  0.244659
   1365.00  0.246572
   1370.00  0.248493
   1375.00  0.250423
   1380.00  0.252360
   1385.00  0.254307
   1390.00  0.256262
   1395.00  0.258224
   1400.00  0.260195
   1405.00  0.262173
   1410.00  0.264159
   1415.00  0.266152
   1420.00  0.268154
   1425.00  0.270164
   1430.00  0.272182
   1435.00  0.274208
   1440.00  0.276243
   1445.00  0.278285
   1450.00  0.280338
   1455.00  0.282400
   1460.00  0.284470
   1465.00  0.286548
   1470.00  0.288636
   1475.00  0.290738
   1480.00  0.292848
   1485.00  0.294967
   1490.00  0.297093
   1495.00  0.299236
   1500.00  0.301400
   1505.00  0.303572
   1510.00  0.305752
   1515.00  0.307941
   1520.00  0.310141
   1525.00  0.312350
   1530.00  0.314568
   1535.00  0.316794
   1540.00  0.319029
   1545.00  0.321272
   1550.00  0.323523
   1555.00  0.325783
   1560.00  0.328052
   1565.00  0.330328
   1570.00  0.332615
   1575.00  0.334911
   1580.00  0.337215
   1585.00  0.339528
   1590.00  0.341850
   1595.00  0.344181
   1600.00  0.346521
   1605.00  0.348870
   1610.00  0.351227
   1615.00  0.353593
   1620.00  0.355967
   1625.00  0.358350
   1630.00  0.360741
   1635.00  0.363140
   1640.00  0.365549
   1645.00  0.367966
   1650.00  0.370396
   1655.00  0.372834
   1660.00  0.375280
   1665.00  0.377736
   1670.00  0.380200
   1675.00  0.382672
   1680.00  0.385154
   1685.00  0.387644
   1690.00  0.390142
   1695.00  0.392650
   1700.00  0.395165
   1705.00  0.397688
   1710.00  0.400220
   1715.00  0.402761
   1720.00  0.405310
   1725.00  0.407868
   1730.00  0.410467
   1735.00  0.413075
   1740.00  0.415692
   1745.00  0.418318
   1750.00  0.420953
   1755.00  0.423601
   1760.00  0.426261
   1765.00  0.428930
   1770.00  0.431609
   1775.00  0.434297
   1780.00  0.436994
   1785.00  0.439700
   1790.00  0.442415
   1795.00  0.445139
   1800.00  0.447873
   1805.00  0.450616
   1810.00  0.149560
   1815.00  0.150375
   1820.00  0.151193
   1825.00  0.152014
   1830.00  0.152836
   1835.00  0.153660
   1840.00  0.154487
   1845.00  0.155316
   1850.00  0.156147
   1855.00  0.156980
   1860.00  0.157816
   1865.00  0.158653
   1870.00  0.159493
   1875.00  0.108260
   1880.00  0.108963
   1885.00  0.109669
   1890.00  0.110377
   1895.00  0.111087
   1900.00  0.111801
   1905.00  0.112517
   1910.00  0.113236
   1915.00  0.113957
   1920.00  0.114682
   1925.00  0.115409
   1930.00  0.116138
   1935.00  0.116871
   1940.00  0.117606
   1945.00  0.118343
   1950.00  0.119084
   1955.00  0.119827
   1960.00  0.120573
   1965.00  0.121322
   1970.00  0.122073
   1975.00  0.122828
   1980.00  0.123585
   1985.00  0.124344
   1990.00  0.125107
   1995.00  0.125872
   2000.00  0.126641
   2005.00  0.127406
   2010.00  0.128173
   2015.00  0.128944
   2020.00  0.129716
   2025.00  0.130492
   2030.00  0.131276
